"Time (s)","X (µT)","Y (µT)","Z (µT)"
1.792195833E-2,-2.029534721E1,-2.424278259E0,-4.522923279E1
3.783995834E-2,-2.066294098E1,-2.019935608E0,-4.489559937E1
5.775895833E-2,-2.136566734E1,-1.112457275E0,-4.512898254E1
7.767695834E-2,-2.248127556E1,-2.760696411E-1,-4.491400146E1
9.759595833E-2,-2.323932648E1,4.567947388E-1,-4.424711609E1
1.175139583E-1,-2.400822449E1,1.578079224E0,-4.385615540E1
1.374319583E-1,-2.520481110E1,2.694213867E0,-4.331585693E1
1.573509583E-1,-2.677087402E1,3.813957214E0,-4.225364685E1
1.772689583E-1,-2.771942520E1,4.415031433E0,-4.120980835E1
1.971869583E-1,-2.799649429E1,5.038124084E0,-4.166624451E1
2.171059583E-1,-2.822990036E1,5.119010925E0,-4.111201477E1
2.370239583E-1,-2.799535751E1,4.494338989E0,-4.126438904E1
2.569429583E-1,-2.765064049E1,4.156616211E0,-4.123785400E1
2.768609583E-1,-2.692544937E1,3.986366272E0,-4.177210999E1
2.967789583E-1,-2.578556252E1,4.306533813E0,-4.223411560E1
3.166979583E-1,-2.410781860E1,4.857635498E0,-4.297212219E1
3.366159583E-1,-2.144252968E1,5.420333862E0,-4.412800598E1
3.565349583E-1,-1.755746078E1,5.462661743E0,-4.560298157E1
3.764529583E-1,-1.344446945E1,5.484260559E0,-4.724755859E1
3.963709583E-1,-1.039616203E1,6.466423035E0,-4.820739746E1
4.162899583E-1,-7.048010826E0,7.908241272E0,-4.827818298E1
4.362079583E-1,-3.561416626E0,9.357704163E0,-4.836169434E1
4.561259583E-1,-1.345825195E-1,1.015230560E1,-4.881596375E1
4.760449583E-1,2.256305695E0,1.038112640E1,-4.791543579E1
4.959629583E-1,4.137197495E0,1.005714417E1,-4.807200623E1
5.158819583E-1,4.667064667E0,1.021240234E1,-4.818086243E1
5.357999583E-1,4.696374893E0,1.042089844E1,-4.778918457E1
5.557179583E-1,4.590444565E0,1.016537476E1,-4.798893738E1
5.756369583E-1,4.453006744E0,1.020221710E1,-4.786296082E1
5.955549583E-1,3.463302612E0,1.069597626E1,-4.792790222E1
6.154739583E-1,2.608909607E0,1.160656738E1,-4.822329712E1
6.353919583E-1,1.921152115E0,1.228404236E1,-4.763569641E1
6.553099583E-1,1.575618744E0,1.154914093E1,-4.766781616E1
6.752289583E-1,1.681451797E0,1.090272522E1,-4.807742310E1
6.951469583E-1,2.336576462E0,1.034122467E1,-4.840550232E1
7.150649583E-1,3.205429077E0,1.041053772E1,-4.842689514E1
7.349839583E-1,3.642440796E0,1.087959290E1,-4.782983398E1
7.549019583E-1,4.228813171E0,1.121105194E1,-4.766651917E1
7.748209583E-1,5.155157089E0,1.130381775E1,-4.752153015E1
7.947389583E-1,6.737960815E0,1.157132721E1,-4.687557983E1
8.146569583E-1,7.748598099E0,1.166217041E1,-4.687269592E1
8.345760833E-1,9.558570862E0,1.191538239E1,-4.625447083E1
8.544940833E-1,1.144324112E1,1.244532776E1,-4.555908203E1
8.744130833E-1,1.298414421E1,1.357260132E1,-4.506411743E1
8.943310833E-1,1.417378044E1,1.446358490E1,-4.373382568E1
9.142490833E-1,1.572017860E1,1.584104156E1,-4.332386780E1
9.341680833E-1,1.748392677E1,1.618680573E1,-4.238624573E1
9.540860833E-1,1.904620171E1,1.619356537E1,-4.168475342E1
9.740050833E-1,2.060321617E1,1.611594391E1,-4.053868103E1
9.939230833E-1,2.225908089E1,1.609902191E1,-3.982272339E1
1.013841083E0,2.401143074E1,1.661536407E1,-3.854859924E1
1.033760083E0,2.556809044E1,1.809026337E1,-3.663644409E1
1.053678083E0,2.669655037E1,2.029195404E1,-3.476431274E1
1.073597083E0,2.758871269E1,2.287265778E1,-3.221069336E1
1.093515083E0,2.859573936E1,2.577858734E1,-2.932278442E1
1.113433083E0,2.907560539E1,2.861196136E1,-2.583081055E1
1.133352083E0,2.911971474E1,3.180533600E1,-2.206559753E1
1.153270083E0,2.888606834E1,3.443688202E1,-1.774401855E1
1.173189083E0,2.816057777E1,3.740741730E1,-1.228308105E1
1.193107083E0,2.645193291E1,4.000096893E1,-6.860397339E0
1.213025083E0,2.437361336E1,4.196276093E1,-1.325454712E0
1.232944083E0,2.197924232E1,4.312271881E1,4.238677979E0
1.252862083E0,1.938090324E1,4.323479462E1,9.448852539E0
1.272781083E0,1.739018440E1,4.354084015E1,1.387304688E1
1.292699083E0,1.538810539E1,4.257796478E1,1.810137939E1
1.312617083E0,1.387871742E1,4.170555878E1,2.194403076E1
1.332536083E0,1.298719978E1,3.993195343E1,2.525650024E1
1.352454083E0,1.239052010E1,3.787209320E1,2.850988770E1
1.372373083E0,1.218822289E1,3.575756073E1,3.142745972E1
1.392291083E0,1.171057129E1,3.435228729E1,3.309861755E1
1.412209083E0,1.210161972E1,3.297365570E1,3.431204224E1
1.432128083E0,1.274926567E1,3.289597321E1,3.412936401E1
1.452046083E0,1.353519630E1,3.326721954E1,3.370780945E1
1.471965083E0,1.432200813E1,3.440383148E1,3.241075134E1
1.491883083E0,1.496009254E1,3.649651337E1,2.959275818E1
1.511801083E0,1.525686455E1,3.864690399E1,2.690173340E1
1.531720083E0,1.571117973E1,4.065506744E1,2.379983521E1
1.551638083E0,1.636282158E1,4.235594940E1,2.072026062E1
1.571557083E0,1.780226707E1,4.276596832E1,1.728009033E1
1.591475083E0,1.961643410E1,4.293851471E1,1.438665771E1
1.611393083E0,2.083895302E1,4.297838593E1,1.285321045E1
1.631312083E0,2.219734764E1,4.295038605E1,1.082261658E1
1.651230083E0,2.359018898E1,4.263933563E1,8.997436523E0
1.671148083E0,2.499545097E1,4.213962555E1,6.224761963E0
1.691067083E0,2.627610970E1,4.161896515E1,3.120605469E0
1.710985083E0,2.698169899E1,4.121816254E1,1.165267944E0
1.730904083E0,2.686575127E1,4.118840790E1,-7.410583496E-1
1.750822083E0,2.694944191E1,4.114583588E1,-2.512954712E0
1.770740083E0,2.696711540E1,4.057970428E1,-4.317245483E0
1.790659083E0,2.698557472E1,3.998651886E1,-6.510803223E0
1.810577083E0,2.721658516E1,3.896768951E1,-7.732147217E0
1.830495625E0,2.747750664E1,3.871520233E1,-9.897323608E0
1.850413625E0,2.709055901E1,3.860068512E1,-1.082191467E1
1.870331625E0,2.714425087E1,3.810237885E1,-1.176727295E1
1.890250625E0,2.682633781E1,3.793114471E1,-1.210157776E1
1.910168625E0,2.594020653E1,3.829325104E1,-1.158366394E1
1.930087625E0,2.462967491E1,3.901372528E1,-8.280380249E0
1.950005625E0,2.337257195E1,3.986135101E1,-4.420471191E0
1.969923625E0,2.340863991E1,3.983567047E1,-2.597274780E0
1.989842625E0,2.359009361E1,3.929483795E1,1.781616211E0
2.009760625E0,2.451635933E1,3.785460663E1,5.133422852E0
2.029679625E0,2.573264503E1,3.669942474E1,6.440444946E0
2.049597625E0,2.683260155E1,3.613875580E1,6.700927734E0
2.069515625E0,2.824320412E1,3.508145905E1,6.008453369E0
2.089434625E0,2.958168221E1,3.434973907E1,4.947845459E0
2.109352625E0,3.007862663E1,3.381000519E1,3.857559204E0
2.129271625E0,3.072738838E1,3.312325287E1,3.844192505E0
2.149189625E0,3.117397881E1,3.255840302E1,3.253723145E0
2.169107625E0,3.187756538E1,3.208478546E1,3.691116333E0
2.189026625E0,3.241201782E1,3.115477753E1,4.039459229E0
2.208944625E0,3.264604187E1,3.034491730E1,4.011260986E0
2.228863625E0,3.303128815E1,2.955846405E1,4.863815308E0
2.248781625E0,3.342009735E1,2.908951569E1,5.350112915E0
2.268699625E0,3.377178955E1,2.864374542E1,6.057189941E0
2.288618625E0,3.394644165E1,2.787313080E1,6.187164307E0
2.308536625E0,3.469946289E1,2.731653595E1,6.561035156E0
2.328455625E0,3.505294800E1,2.673470306E1,6.439987183E0
2.348373625E0,3.552068329E1,2.644420624E1,5.877731323E0
2.368291625E0,3.661687469E1,2.542487335E1,4.768310547E0
2.388210625E0,3.755895996E1,2.414459991E1,3.089492798E0
2.408128625E0,3.877313232E1,2.256610870E1,2.066421509E0
2.428047625E0,3.956087494E1,2.198912811E1,1.356750488E0
2.447965625E0,3.963021088E1,2.298195648E1,7.856140137E-1
2.467883625E0,3.901118469E1,2.429076385E1,5.297088623E-1
2.487802625E0,3.854135132E1,2.518364716E1,5.206909180E-1
2.507720625E0,3.836692810E1,2.573397064E1,1.333282471E0
2.527639625E0,3.808431244E1,2.598612213E1,1.502243042E0
2.547557625E0,3.801161957E1,2.609989166E1,1.624404907E0
2.567475625E0,3.802223206E1,2.617067719E1,1.251190186E0
2.587394625E0,3.846622467E1,2.532721710E1,3.762512207E-1
2.607312625E0,3.886936188E1,2.509088898E1,-1.433425903E0
2.627231625E0,3.874826050E1,2.542072296E1,-4.127319336E0
2.647149625E0,3.773846436E1,2.658934784E1,-6.013122559E0
2.667067625E0,3.662427521E1,2.775705719E1,-7.103820801E0
2.686986625E0,3.584391022E1,2.877600861E1,-8.181274414E0
2.706904625E0,3.493216705E1,2.950676727E1,-9.704711914E0
2.726823625E0,3.435488129E1,2.996102142E1,-1.155667114E1
2.746741625E0,3.360288239E1,2.982436371E1,-1.258447266E1
2.766659625E0,3.294307709E1,3.000788116E1,-1.430412292E1
2.786578625E0,3.210322571E1,3.008577728E1,-1.546220398E1
2.806496625E0,3.202456665E1,3.023648834E1,-1.642518616E1
2.826415625E0,3.189907646E1,2.999954987E1,-1.686468506E1
2.846333625E0,3.184534264E1,3.001940155E1,-1.659893799E1
2.866251625E0,3.193867302E1,3.017499542E1,-1.568878174E1
2.886170625E0,3.250283051E1,3.029578400E1,-1.594783020E1
2.906088625E0,3.271770477E1,3.033051300E1,-1.448968506E1
2.926007625E0,3.334828186E1,3.029038239E1,-1.303161621E1
2.945925625E0,3.386316681E1,3.007718658E1,-1.175013733E1
2.965843625E0,3.421920776E1,2.966954803E1,-1.048466492E1
2.985762625E0,3.522682953E1,2.940554047E1,-8.967803955E0
3.005680625E0,3.585239410E1,2.891199493E1,-6.615936279E0
3.025599625E0,3.635243988E1,2.855765533E1,-3.506103516E0
3.045517625E0,3.672500610E1,2.794229889E1,4.322814941E-2
3.065435625E0,3.734045410E1,2.770668793E1,2.567901611E0
3.085354625E0,3.695938110E1,2.733271027E1,3.288681030E0
3.105272625E0,3.720317078E1,2.697283173E1,3.561767578E0
3.125191625E0,3.713159943E1,2.658574677E1,4.135086060E0
3.145109625E0,3.716476440E1,2.685698700E1,4.337234497E0
3.165028625E0,3.708789825E1,2.673986053E1,3.192169189E0
3.184946625E0,3.743173981E1,2.689824677E1,1.398559570E0
3.204864625E0,3.698582458E1,2.708432770E1,-5.909881592E-1
3.224783625E0,3.664433289E1,2.727256012E1,-2.550018311E0
3.244701625E0,3.684991455E1,2.766053009E1,-3.785369873E0
3.264619625E0,3.624200439E1,2.825299835E1,-5.293014526E0
3.284538625E0,3.598647308E1,2.832518768E1,-6.290344238E0
3.304456625E0,3.538546753E1,2.821863556E1,-7.328475952E0
3.324375625E0,3.523240662E1,2.857053375E1,-8.388015747E0
3.344293625E0,3.508894348E1,2.879273224E1,-9.411056519E0
3.364212625E0,3.447547913E1,2.933441925E1,-1.079548645E1
3.384130625E0,3.389517212E1,2.956090546E1,-1.179846191E1
3.404048625E0,3.381795502E1,2.983429718E1,-1.248161316E1
3.423967625E0,3.328650665E1,3.013336945E1,-1.260565186E1
3.443885625E0,3.300979614E1,3.020133209E1,-1.282321167E1
3.463804625E0,3.259356689E1,3.080358124E1,-1.278247070E1
3.483722625E0,3.236753082E1,3.113101959E1,-1.273764038E1
3.503640625E0,3.207967377E1,3.128951263E1,-1.305543518E1
3.523559625E0,3.216490173E1,3.185326385E1,-1.277920532E1
3.543477625E0,3.195855522E1,3.189936066E1,-1.143074036E1
3.563396625E0,3.202088928E1,3.170558929E1,-1.083938599E1
3.583314625E0,3.251797485E1,3.179468536E1,-1.056764221E1
3.603232625E0,3.251317596E1,3.162563324E1,-9.520950317E0
3.623151625E0,3.297475433E1,3.141568756E1,-8.777587891E0
3.643069625E0,3.331191254E1,3.115828705E1,-8.070373535E0
3.662988625E0,3.363636780E1,3.091657257E1,-7.449111938E0
3.682906625E0,3.403341675E1,3.093222809E1,-7.121734619E0
3.702824625E0,3.404911804E1,3.074819183E1,-6.411758423E0
3.722743625E0,3.385733795E1,3.081975555E1,-6.631103516E0
3.742661625E0,3.435758209E1,3.063666534E1,-6.900726318E0
3.762580625E0,3.393472290E1,3.102802277E1,-7.345199585E0
3.782498625E0,3.340100861E1,3.121329498E1,-7.909835815E0
3.802416625E0,3.350261688E1,3.136632538E1,-6.980270386E0
3.822335625E0,3.375286865E1,3.183051300E1,-5.832366943E0
3.842253208E0,3.419010925E1,3.144866180E1,-4.030212402E0
3.862172208E0,3.454313660E1,3.123386383E1,-2.108154297E0
3.882090208E0,3.488607788E1,3.077074432E1,-3.149719238E-1
3.902008208E0,3.494344330E1,3.089127350E1,6.689605713E-1
3.921927208E0,3.477442932E1,3.109592438E1,5.939636230E-1
3.941845208E0,3.468022156E1,3.116580963E1,3.868865967E-1
3.961764208E0,3.499140167E1,3.065717316E1,1.061706543E-1
3.981682208E0,3.528215790E1,3.034180450E1,7.568359375E-2
4.001600208E0,3.544378662E1,3.021439362E1,1.840515137E-1
4.021519208E0,3.576626587E1,2.971566010E1,2.707977295E-1
4.041437208E0,3.573689270E1,2.938729095E1,9.264526367E-1
4.061356208E0,3.597151184E1,2.932955170E1,1.868484497E0
4.081274208E0,3.609338379E1,2.900901031E1,2.480102539E0
4.101192208E0,3.620845795E1,2.875092316E1,3.376281738E0
4.121111208E0,3.640789032E1,2.861112213E1,4.198806763E0
4.141029208E0,3.637819672E1,2.815975189E1,5.077667236E0
4.160948208E0,3.671607971E1,2.755995941E1,5.363525391E0
4.180866208E0,3.718669891E1,2.697991180E1,5.913742065E0
4.200785208E0,3.742759705E1,2.686582184E1,6.098297119E0
4.220703208E0,3.741976166E1,2.682340240E1,6.913848877E0
4.240621208E0,3.730325317E1,2.646445465E1,7.441711426E0
4.260540208E0,3.707154083E1,2.633019257E1,8.481491089E0
4.280458208E0,3.647512054E1,2.617066193E1,1.108897400E1
4.300377208E0,3.640775299E1,2.638883209E1,1.207762146E1
4.320295208E0,3.637372589E1,2.714073944E1,1.027371216E1
4.340213208E0,3.623746490E1,2.778183746E1,7.771026611E0
4.360132208E0,3.628230286E1,2.874518585E1,4.718643188E0
4.380050208E0,3.560323334E1,2.981391144E1,1.167144775E0
4.399969208E0,3.503904724E1,3.066902924E1,-1.192947388E0
4.419887208E0,3.425109863E1,3.140328217E1,-3.784973145E0
4.439805208E0,3.370030212E1,3.177570343E1,-5.851867676E0
4.459724208E0,3.362755585E1,3.216843414E1,-7.122436523E0
4.479642208E0,3.284194183E1,3.222869110E1,-7.968170166E0
4.499561208E0,3.237999725E1,3.253916168E1,-8.119110107E0
4.519479208E0,3.226464081E1,3.313849640E1,-8.116897583E0
4.539397208E0,3.218453217E1,3.355774689E1,-8.519271851E0
4.559316208E0,3.176117897E1,3.373925018E1,-8.046997070E0
4.579234208E0,3.167915154E1,3.408388519E1,-8.306732178E0
4.599153208E0,3.119828224E1,3.420383453E1,-8.641860962E0
4.619071208E0,3.076155281E1,3.421765900E1,-8.181030273E0
4.638989208E0,3.079834557E1,3.455107880E1,-8.502548218E0
4.658908208E0,3.088049126E1,3.480629730E1,-8.883911133E0
4.678826208E0,3.071201134E1,3.484032440E1,-9.044082642E0
4.698745208E0,3.083062172E1,3.491886139E1,-8.796279907E0
4.718663208E0,3.061026192E1,3.486739349E1,-9.205535889E0
4.738581208E0,3.078378868E1,3.472664642E1,-9.101943970E0
4.758500208E0,3.061228752E1,3.479271698E1,-9.294357300E0
4.778418208E0,3.088321877E1,3.489633942E1,-9.310012817E0
4.798337208E0,3.087790108E1,3.500803375E1,-9.005615234E0
4.818255208E0,3.118585777E1,3.500379181E1,-9.050949097E0
4.838174208E0,3.095253944E1,3.490024567E1,-8.782531738E0
4.858093208E0,3.112658501E1,3.498621368E1,-8.177917480E0
4.878011208E0,3.146047783E1,3.481667328E1,-7.757308960E0
4.897930208E0,3.175155830E1,3.451044464E1,-6.902816772E0
4.917848208E0,3.259681702E1,3.397373199E1,-5.451965332E0
4.937767208E0,3.367590332E1,3.358679962E1,-3.757308960E0
4.957685208E0,3.444056702E1,3.246175385E1,-1.643264771E0
4.977603208E0,3.550498962E1,3.096686554E1,7.539520264E-1
4.997522208E0,3.661123657E1,2.926546478E1,3.672561646E0
5.017440208E0,3.748194885E1,2.739813995E1,6.079696655E0
5.037359208E0,3.819693756E1,2.581223297E1,9.078414917E0
5.057277208E0,3.840878296E1,2.439002228E1,1.087950134E1
5.077195208E0,3.816403961E1,2.333159637E1,1.283299255E1
5.097114208E0,3.805195618E1,2.316696930E1,1.403474426E1
5.117032208E0,3.783467102E1,2.310797882E1,1.454884338E1
5.136951208E0,3.742985535E1,2.355452728E1,1.485183716E1
5.156869208E0,3.769277954E1,2.404430389E1,1.422480774E1
5.176787208E0,3.788362122E1,2.384548187E1,1.389109802E1
5.196706208E0,3.788510132E1,2.364070892E1,1.402891541E1
5.216624208E0,3.801220703E1,2.328525543E1,1.413780212E1
5.236543208E0,3.805162048E1,2.309905243E1,1.399884033E1
5.256461208E0,3.867005157E1,2.281484222E1,1.382876587E1
5.276379208E0,3.940048981E1,2.207472992E1,1.319786072E1
5.296298208E0,3.985507965E1,2.123049164E1,1.343316650E1
5.316216208E0,4.032527924E1,1.989305878E1,1.332055664E1
5.336135208E0,4.065386200E1,1.886914825E1,1.315052795E1
5.356053208E0,4.061263275E1,1.855042267E1,1.320159912E1
5.375971208E0,4.109452820E1,1.833376312E1,1.277023315E1
5.395890208E0,4.112263489E1,1.799317169E1,1.243663025E1
5.415808208E0,4.135833740E1,1.765900421E1,1.154939270E1
5.435727208E0,4.200381470E1,1.716429901E1,1.078897095E1
5.455645208E0,4.210331726E1,1.717308807E1,1.054406738E1
5.475563208E0,4.231578827E1,1.697686005E1,1.022879028E1
5.495482208E0,4.222602844E1,1.720044708E1,1.062530518E1
5.515400208E0,4.163313293E1,1.774840546E1,1.133578491E1
5.535319208E0,4.082250214E1,1.888391876E1,1.302000427E1
5.555237208E0,4.028375244E1,2.006899261E1,1.390458679E1
5.575156208E0,3.957695770E1,2.096521759E1,1.452420044E1
5.595074208E0,3.867716217E1,2.244634247E1,1.444407654E1
5.614992208E0,3.854725647E1,2.351393890E1,1.410494995E1
5.634911208E0,3.812606049E1,2.448377228E1,1.317123413E1
5.654829208E0,3.837264252E1,2.513951874E1,1.181289673E1
5.674748208E0,3.861171722E1,2.530640411E1,1.040287781E1
5.694666208E0,3.921086121E1,2.505704498E1,9.435241699E0
5.714584208E0,3.955232239E1,2.459523773E1,8.723205566E0
5.734503208E0,4.037014771E1,2.310475922E1,8.655624390E0
5.754421208E0,4.090699005E1,2.212172699E1,8.264724731E0
5.774340208E0,4.109753418E1,2.095703888E1,9.043060303E0
5.794258208E0,4.179888916E1,1.947832489E1,1.056344604E1
5.814176208E0,4.187386322E1,1.831749725E1,1.178627014E1
5.834094500E0,4.211957550E1,1.682735443E1,1.336787415E1
5.854012500E0,4.202341461E1,1.519307709E1,1.478198242E1
5.873931500E0,4.208359528E1,1.329920197E1,1.609788513E1
5.893849500E0,4.191476440E1,1.119194794E1,1.760621643E1
5.913767500E0,4.182723999E1,9.207176208E0,1.896208191E1
5.933686500E0,4.179463959E1,7.265518188E0,2.021192932E1
5.953604500E0,4.187290955E1,5.336265564E0,2.109910583E1
5.973523500E0,4.168143463E1,3.349952698E0,2.154255676E1
5.993441500E0,4.164172363E1,1.814682007E0,2.111412048E1
6.013359500E0,4.231056976E1,1.623985291E0,2.018669128E1
6.033278500E0,4.246838379E1,2.455986023E0,1.980513000E1
6.053196500E0,4.258343506E1,3.075302124E0,1.993589783E1
6.073115500E0,4.237681580E1,3.765106201E0,2.034899902E1
6.093033500E0,4.226964569E1,3.808776855E0,2.029342651E1
6.112952500E0,4.231121063E1,3.734306335E0,2.046206665E1
6.132870500E0,4.218515778E1,3.604110718E0,2.040141296E1
6.152788500E0,4.235446930E1,3.505058289E0,2.017413330E1
6.172707500E0,4.244876099E1,3.892234802E0,2.002850342E1
6.192625500E0,4.244949341E1,4.265975952E0,1.954768372E1
6.212544500E0,4.226873016E1,4.496170044E0,1.953813171E1
6.232462500E0,4.229792023E1,4.726737976E0,1.930987549E1
6.252380500E0,4.238702393E1,4.609283447E0,1.976712036E1
6.272299500E0,4.206316376E1,4.316345215E0,1.990222168E1
6.292217500E0,4.217500305E1,3.262496948E0,2.005245972E1
6.312136500E0,4.232026672E1,2.351394653E0,2.027107239E1
6.332054500E0,4.188146973E1,1.096504211E0,2.037684631E1
6.351972500E0,4.139533234E1,-3.860549927E-1,2.091358948E1
6.371891500E0,4.099591827E1,-2.567291260E0,2.217483521E1
6.391809500E0,4.004263306E1,-4.275466919E0,2.296208191E1
6.411728500E0,3.998808289E1,-6.038917542E0,2.240728760E1
6.431646500E0,4.060946655E1,-7.316619873E0,2.108839417E1
6.451564500E0,4.083992004E1,-7.730812073E0,2.022099304E1
6.471483500E0,4.083594513E1,-7.739845276E0,1.980618286E1
6.491401500E0,4.084754944E1,-7.177711487E0,1.955877686E1
6.511320500E0,4.075567627E1,-6.310279846E0,2.000415039E1
6.531238500E0,4.109826660E1,-6.017646790E0,2.005780029E1
6.551156500E0,4.108718109E1,-5.364662170E0,1.987646484E1
6.571075500E0,4.105605316E1,-4.460632324E0,2.010615540E1
6.590993500E0,4.115656281E1,-3.816894531E0,1.995901489E1
6.610912500E0,4.106268311E1,-3.253089905E0,1.989543152E1
6.630830500E0,4.105871582E1,-2.898605347E0,1.959915161E1
6.650748500E0,4.136318207E1,-2.618782043E0,1.984626770E1
6.670667500E0,4.138156128E1,-2.125976562E0,1.978500366E1
6.690585500E0,4.103630829E1,-1.924003601E0,1.958737183E1
6.710504500E0,4.133085632E1,-1.556999207E0,1.926605225E1
6.730422500E0,4.171198273E1,-9.641418457E-1,1.947879028E1
6.750341500E0,4.143579102E1,-5.041580200E-1,1.972224426E1
6.770259500E0,4.152188873E1,3.386230469E-1,2.021215820E1
6.790177500E0,4.153956604E1,6.399002075E-1,2.012435913E1
6.810096500E0,4.179628754E1,1.157554626E0,1.991880798E1
6.830014208E0,4.185887146E1,1.395637512E0,2.011441040E1
6.849933208E0,4.204786682E1,1.374580383E0,1.939073181E1
6.869851208E0,4.195184326E1,1.195289612E0,1.896199036E1
6.889769208E0,4.241776276E1,6.179122925E-1,1.892489624E1
6.909688208E0,4.260613251E1,1.151123047E-1,1.874737549E1
6.929606208E0,4.282569122E1,-1.028244019E0,1.882501221E1
6.949525208E0,4.265648651E1,-2.260856628E0,1.818353271E1
6.969443208E0,4.235460663E1,-3.618835449E0,1.819551086E1
6.989361208E0,4.201396942E1,-5.175231934E0,1.854649353E1
